


 ELASTO-STATIC STRESS ANALYSIS BY DIRECT BOUNDARYELEMENT METHOD,
 ***************************************************************


 PROBLEM PARTICULARS :

  AXISYMMETRIC SENSITIVITY OF A HOLLOW SPHERE                                    
 SPECIFIED PROBLEM TYPE - AXISYMMETRIC
 NO BODY FORCES


 ELASTIC MODULUS,POISSON'S RATIO,RHO :.30000E+08   .30000E+00   .00000E+00
 NUMBER OF NODES , NUMBER OF ELEMENTS :  121        60



           NODE NO.     R-CORD         Z-CORD

             1         0.0000         4.0000
             2         0.1570         3.9969
             3         0.3138         3.9877
             4         0.4701         3.9723
             5         0.6257         3.9508
             6         0.7804         3.9231
             7         0.9338         3.8895
             8         1.0858         3.8498
             9         1.2361         3.8042
            10         1.3845         3.7528
            11         1.5307         3.6955
            12         1.6746         3.6326
            13         1.8160         3.5640
            14         1.9545         3.4900
            15         2.0900         3.4106
            16         2.2223         3.3259
            17         2.3511         3.2361
            18         2.4764         3.1413
            19         2.5978         3.0416
            20         2.7152         2.9373
            21         2.8284         2.8284
            22         2.9373         2.7152
            23         3.0416         2.5978
            24         3.1413         2.4764
            25         3.2361         2.3511
            26         3.3259         2.2223
            27         3.4106         2.0900
            28         3.4900         1.9545
            29         3.5640         1.8160
            30         3.6326         1.6746
            31         3.6955         1.5307
            32         3.7528         1.3845
            33         3.8042         1.2361
            34         3.8498         1.0858
            35         3.8895         0.9338
            36         3.9231         0.7804
            37         3.9508         0.6257
            38         3.9723         0.4701
            39         3.9877         0.3138
            40         3.9969         0.1570
            41         4.0000         0.0000
            42         4.4000         0.0000
            43         4.8000         0.0000
            44         5.2000         0.0000
            45         5.6000         0.0000
            46         6.0000         0.0000
            47         6.4000         0.0000
            48         6.8000         0.0000
            49         7.2000         0.0000
            50         7.6000         0.0000
            51         8.0000         0.0000
            52         8.4000         0.0000
            53         8.8000         0.0000
            54         9.2000         0.0000
            55         9.6000         0.0000
            56        10.0000         0.0000
            57        10.4000         0.0000
            58        10.8000         0.0000
            59        11.2000         0.0000
            60        11.6000         0.0000
            61        12.0000         0.0000
            62        12.4000         0.0000
            63        12.8000         0.0000
            64        13.2000         0.0000
            65        13.6000         0.0000
            66        14.0000         0.0000
            67        14.4000         0.0000
            68        14.8000         0.0000
            69        15.2000         0.0000
            70        15.6000         0.0000
            71        16.0000         0.0000
            72        16.4000         0.0000
            73        16.8000         0.0000
            74        17.2000         0.0000
            75        17.6000         0.0000
            76        18.0000         0.0000
            77        18.4000         0.0000
            78        18.8000         0.0000
            79        19.2000         0.0000
            80        19.6000         0.0000
            81        20.0000         0.0000
            82        19.9846         0.7852
            83        19.9383         1.5692
            84        19.8614         2.3507
            85        19.7538         3.1287
            86        19.6157         3.9018
            87        19.4474         4.6689
            88        19.2491         5.4288
            89        19.0211         6.1803
            90        18.7638         6.9223
            91        18.4776         7.6537
            92        18.1629         8.3732
            93        17.8201         9.0798
            94        17.4499         9.7724
            95        17.0528        10.4500
            96        16.6294        11.1114
            97        16.1803        11.7557
            98        15.7063        12.3819
            99        15.2081        12.9890
           100        14.6865        13.5760
           101        14.1421        14.1421
           102        13.5760        14.6865
           103        12.9890        15.2081
           104        12.3819        15.7063
           105        11.7557        16.1803
           106        11.1114        16.6294
           107        10.4500        17.0528
           108         9.7724        17.4499
           109         9.0798        17.8201
           110         8.3732        18.1629
           111         7.6537        18.4776
           112         6.9223        18.7638
           113         6.1803        19.0211
           114         5.4288        19.2491
           115         4.6689        19.4474
           116         3.9018        19.6157
           117         3.1287        19.7538
           118         2.3507        19.8614
           119         1.5692        19.9383
           120         0.7852        19.9846
           121         0.0000        20.0000


 DETAILS OF CONNECTIVITY :

  ELEMENT NO.  NODE A  NODE B  NODE C
       1          1       2       3
       2          3       4       5
       3          5       6       7
       4          7       8       9
       5          9      10      11
       6         11      12      13
       7         13      14      15
       8         15      16      17
       9         17      18      19
      10         19      20      21
      11         21      22      23
      12         23      24      25
      13         25      26      27
      14         27      28      29
      15         29      30      31
      16         31      32      33
      17         33      34      35
      18         35      36      37
      19         37      38      39
      20         39      40      41
      21         41      42      43
      22         43      44      45
      23         45      46      47
      24         47      48      49
      25         49      50      51
      26         51      52      53
      27         53      54      55
      28         55      56      57
      29         57      58      59
      30         59      60      61
      31         61      62      63
      32         63      64      65
      33         65      66      67
      34         67      68      69
      35         69      70      71
      36         71      72      73
      37         73      74      75
      38         75      76      77
      39         77      78      79
      40         79      80      81
      41         81      82      83
      42         83      84      85
      43         85      86      87
      44         87      88      89
      45         89      90      91
      46         91      92      93
      47         93      94      95
      48         95      96      97
      49         97      98      99
      50         99     100     101
      51        101     102     103
      52        103     104     105
      53        105     106     107
      54        107     108     109
      55        109     110     111
      56        111     112     113
      57        113     114     115
      58        115     116     117
      59        117     118     119
      60        119     120     121


 BOUNDARY CONDITIONS PROVIDED :

 ELEMENT NO.           NODE A
 ___________           ______
             BC TYPES
            DIR.1 DIR.2       VAL1        VAL2
      1       1     1       0.0000      0.0000
      2       1     1       0.0000      0.0000
      3       1     1       0.0000      0.0000
      4       1     1       0.0000      0.0000
      5       1     1       0.0000      0.0000
      6       1     1       0.0000      0.0000
      7       1     1       0.0000      0.0000
      8       1     1       0.0000      0.0000
      9       1     1       0.0000      0.0000
     10       1     1       0.0000      0.0000
     11       1     1       0.0000      0.0000
     12       1     1       0.0000      0.0000
     13       1     1       0.0000      0.0000
     14       1     1       0.0000      0.0000
     15       1     1       0.0000      0.0000
     16       1     1       0.0000      0.0000
     17       1     1       0.0000      0.0000
     18       1     1       0.0000      0.0000
     19       1     1       0.0000      0.0000
     20       1     1       0.0000      0.0000
     21       1     2       0.0000      0.0000
     22       1     2       0.0000      0.0000
     23       1     2       0.0000      0.0000
     24       1     2       0.0000      0.0000
     25       1     2       0.0000      0.0000
     26       1     2       0.0000      0.0000
     27       1     2       0.0000      0.0000
     28       1     2       0.0000      0.0000
     29       1     2       0.0000      0.0000
     30       1     2       0.0000      0.0000
     31       1     2       0.0000      0.0000
     32       1     2       0.0000      0.0000
     33       1     2       0.0000      0.0000
     34       1     2       0.0000      0.0000
     35       1     2       0.0000      0.0000
     36       1     2       0.0000      0.0000
     37       1     2       0.0000      0.0000
     38       1     2       0.0000      0.0000
     39       1     2       0.0000      0.0000
     40       1     2       0.0000      0.0000
     41       1     1    1000.0000      0.0000
     42       1     1     996.9173     78.4591
     43       1     1     987.6883    156.4345
     44       1     1     972.3699    233.4454
     45       1     1     951.0565    309.0170
     46       1     1     923.8795    382.6834
     47       1     1     891.0065    453.9905
     48       1     1     852.6402    522.4986
     49       1     1     809.0170    587.7853
     50       1     1     760.4060    649.4480
     51       1     1     707.1068    707.1068
     52       1     1     649.4480    760.4060
     53       1     1     587.7853    809.0170
     54       1     1     522.4986    852.6402
     55       1     1     453.9905    891.0065
     56       1     1     382.6834    923.8795
     57       1     1     309.0170    951.0565
     58       1     1     233.4454    972.3699
     59       1     1     156.4345    987.6883
     60       1     1      78.4591    996.9173

 ELEMENT NO.           NODE B
 ___________           ______
             BC TYPES
            DIR.1 DIR.2       VAL1        VAL2
      1       1     1       0.0000      0.0000
      2       1     1       0.0000      0.0000
      3       1     1       0.0000      0.0000
      4       1     1       0.0000      0.0000
      5       1     1       0.0000      0.0000
      6       1     1       0.0000      0.0000
      7       1     1       0.0000      0.0000
      8       1     1       0.0000      0.0000
      9       1     1       0.0000      0.0000
     10       1     1       0.0000      0.0000
     11       1     1       0.0000      0.0000
     12       1     1       0.0000      0.0000
     13       1     1       0.0000      0.0000
     14       1     1       0.0000      0.0000
     15       1     1       0.0000      0.0000
     16       1     1       0.0000      0.0000
     17       1     1       0.0000      0.0000
     18       1     1       0.0000      0.0000
     19       1     1       0.0000      0.0000
     20       1     1       0.0000      0.0000
     21       1     2       0.0000      0.0000
     22       1     2       0.0000      0.0000
     23       1     2       0.0000      0.0000
     24       1     2       0.0000      0.0000
     25       1     2       0.0000      0.0000
     26       1     2       0.0000      0.0000
     27       1     2       0.0000      0.0000
     28       1     2       0.0000      0.0000
     29       1     2       0.0000      0.0000
     30       1     2       0.0000      0.0000
     31       1     2       0.0000      0.0000
     32       1     2       0.0000      0.0000
     33       1     2       0.0000      0.0000
     34       1     2       0.0000      0.0000
     35       1     2       0.0000      0.0000
     36       1     2       0.0000      0.0000
     37       1     2       0.0000      0.0000
     38       1     2       0.0000      0.0000
     39       1     2       0.0000      0.0000
     40       1     2       0.0000      0.0000
     41       1     1     999.2290     39.2598
     42       1     1     993.0685    117.5374
     43       1     1     980.7853    195.0903
     44       1     1     962.4552    271.4404
     45       1     1     938.1913    346.1171
     46       1     1     908.1432    418.6597
     47       1     1     872.4960    488.6212
     48       1     1     831.4696    555.5702
     49       1     1     785.3169    619.0939
     50       1     1     734.3225    678.8007
     51       1     1     678.8007    734.3225
     52       1     1     619.0939    785.3169
     53       1     1     555.5702    831.4696
     54       1     1     488.6212    872.4960
     55       1     1     418.6597    908.1432
     56       1     1     346.1171    938.1913
     57       1     1     271.4404    962.4552
     58       1     1     195.0903    980.7853
     59       1     1     117.5374    993.0685
     60       1     1      39.2598    999.2290

 ELEMENT NO.           NODE C
 ___________           ______
             BC TYPES
            DIR.1 DIR.2       VAL1        VAL2
      1       1     1       0.0000      0.0000
      2       1     1       0.0000      0.0000
      3       1     1       0.0000      0.0000
      4       1     1       0.0000      0.0000
      5       1     1       0.0000      0.0000
      6       1     1       0.0000      0.0000
      7       1     1       0.0000      0.0000
      8       1     1       0.0000      0.0000
      9       1     1       0.0000      0.0000
     10       1     1       0.0000      0.0000
     11       1     1       0.0000      0.0000
     12       1     1       0.0000      0.0000
     13       1     1       0.0000      0.0000
     14       1     1       0.0000      0.0000
     15       1     1       0.0000      0.0000
     16       1     1       0.0000      0.0000
     17       1     1       0.0000      0.0000
     18       1     1       0.0000      0.0000
     19       1     1       0.0000      0.0000
     20       1     1       0.0000      0.0000
     21       1     2       0.0000      0.0000
     22       1     2       0.0000      0.0000
     23       1     2       0.0000      0.0000
     24       1     2       0.0000      0.0000
     25       1     2       0.0000      0.0000
     26       1     2       0.0000      0.0000
     27       1     2       0.0000      0.0000
     28       1     2       0.0000      0.0000
     29       1     2       0.0000      0.0000
     30       1     2       0.0000      0.0000
     31       1     2       0.0000      0.0000
     32       1     2       0.0000      0.0000
     33       1     2       0.0000      0.0000
     34       1     2       0.0000      0.0000
     35       1     2       0.0000      0.0000
     36       1     2       0.0000      0.0000
     37       1     2       0.0000      0.0000
     38       1     2       0.0000      0.0000
     39       1     2       0.0000      0.0000
     40       1     2       0.0000      0.0000
     41       1     1     996.9173     78.4591
     42       1     1     987.6883    156.4345
     43       1     1     972.3699    233.4454
     44       1     1     951.0565    309.0170
     45       1     1     923.8795    382.6834
     46       1     1     891.0065    453.9905
     47       1     1     852.6402    522.4986
     48       1     1     809.0170    587.7853
     49       1     1     760.4060    649.4480
     50       1     1     707.1068    707.1068
     51       1     1     649.4480    760.4060
     52       1     1     587.7853    809.0170
     53       1     1     522.4986    852.6402
     54       1     1     453.9905    891.0065
     55       1     1     382.6834    923.8795
     56       1     1     309.0170    951.0565
     57       1     1     233.4454    972.3699
     58       1     1     156.4345    987.6883
     59       1     1      78.4591    996.9173
     60       1     1       0.0000   1000.0000
             1         0.0000         1.0000
             2         0.0393         0.9992
             3         0.0785         0.9969
             4         0.1175         0.9931
             5         0.1564         0.9877
             6         0.1951         0.9808
             7         0.2334         0.9724
             8         0.2714         0.9625
             9         0.3090         0.9511
            10         0.3461         0.9382
            11         0.3827         0.9239
            12         0.4187         0.9081
            13         0.4540         0.8910
            14         0.4886         0.8725
            15         0.5225         0.8526
            16         0.5556         0.8315
            17         0.5878         0.8090
            18         0.6191         0.7853
            19         0.6494         0.7604
            20         0.6788         0.7343
            21         0.7071         0.7071
            22         0.7343         0.6788
            23         0.7604         0.6494
            24         0.7853         0.6191
            25         0.8090         0.5878
            26         0.8315         0.5556
            27         0.8526         0.5225
            28         0.8725         0.4886
            29         0.8910         0.4540
            30         0.9081         0.4187
            31         0.9239         0.3827
            32         0.9382         0.3461
            33         0.9511         0.3090
            34         0.9625         0.2714
            35         0.9724         0.2334
            36         0.9808         0.1951
            37         0.9877         0.1564
            38         0.9931         0.1175
            39         0.9969         0.0785
            40         0.9992         0.0393
            41         1.0000         0.0000
            42         0.9750         0.0000
            43         0.9500         0.0000
            44         0.9250         0.0000
            45         0.9000         0.0000
            46         0.8750         0.0000
            47         0.8500         0.0000
            48         0.8250         0.0000
            49         0.8000         0.0000
            50         0.7750         0.0000
            51         0.7500         0.0000
            52         0.7250         0.0000
            53         0.7000         0.0000
            54         0.6750         0.0000
            55         0.6500         0.0000
            56         0.6250         0.0000
            57         0.6000         0.0000
            58         0.5750         0.0000
            59         0.5500         0.0000
            60         0.5250         0.0000
            61         0.5000         0.0000
            62         0.4750         0.0000
            63         0.4500         0.0000
            64         0.4250         0.0000
            65         0.4000         0.0000
